HMMER3/f [3.3.1 | Jul 2020]
NAME  SINE-1_ATr-aln-stockholm
LENG  357
MAXL  567
ALPH  DNA
RF    no
MM    no
CONS  yes
CS    no
MAP   yes
DATE  Mon Apr 19 10:32:56 2021
NSEQ  7547
EFFN  1551.816284
CKSUM 1994851170
STATS LOCAL MSV      -11.3076  0.69965
STATS LOCAL VITERBI  -12.7656  0.69965
STATS LOCAL FORWARD   -4.9268  0.69965
HMM          A        C        G        T   
            m->m     m->i     m->d     i->m     i->i     d->m     d->d
  COMPO   1.09308  1.49299  1.77467  1.30719
          1.38629  1.38629  1.38629  1.38629
          0.08633  3.18555  3.18555  1.46634  0.26236  0.00000        *
      1   1.02422  1.68079  1.44129  1.52291      1 a - - -
          1.38629  1.38629  1.38629  1.38629
          0.08633  3.18555  3.18555  1.46634  0.26236  1.09861  0.40547
      2   1.34330  1.85473  0.94760  1.63552      2 g - - -
          1.38629  1.38629  1.38629  1.38629
          0.07436  3.32890  3.32890  1.46634  0.26236  1.09861  0.40547
      3   1.43103  2.15336  0.69821  1.91480      3 g - - -
          1.38629  1.38629  1.38629  1.38629
          0.05604  3.60266  3.60266  1.46634  0.26236  1.09861  0.40547
      4   3.27368  5.56042  0.04765  5.33486      4 G - - -
          1.38629  1.38629  1.38629  1.38629
          0.00600  5.81135  5.81135  1.46634  0.26236  1.09861  0.40547
      5   2.06648  5.59077  0.14513  5.35445      5 g - - -
          1.38629  1.38629  1.38629  1.38629
          0.00402  6.21075  6.21075  1.46634  0.26236  1.09861  0.40547
      6   0.18264  7.15534  1.80058  6.96406      6 a - - -
          1.38629  1.38629  1.38629  1.38629
          0.00811  6.33288  5.06657  1.46634  0.26236  1.09861  0.40547
      7   0.10099  4.30402  2.77061  3.91605      7 A - - -
          1.38629  1.38629  1.38629  1.38629
          0.00348  6.35552  6.35552  1.46634  0.26236  1.25549  0.33538
      8   0.11356  4.42919  2.51540  4.22733      8 a - - -
          1.38629  1.38629  1.38629  1.38629
          0.00335  6.39507  6.39507  1.46634  0.26236  1.25549  0.33538
      9   1.41020  4.20191  0.37787  2.88918      9 g - - -
          1.38629  1.38629  1.38629  1.38629
          0.00326  6.42130  6.42130  1.46634  0.26236  1.25549  0.33538
     10   2.09469  3.42446  0.21597  3.25531     10 g - - -
          1.38629  1.38629  1.38629  1.38629
          0.00314  6.45979  6.45979  1.46634  0.26236  1.25549  0.33538
     11   2.11440  4.57274  0.16892  3.71358     11 g - - -
          1.38629  1.38629  1.38629  1.38629
          0.01330  6.46582  4.45175  1.46634  0.26236  1.25549  0.33538
     12   2.41867  4.11678  0.16847  3.00155     12 g - - -
          1.38629  1.38629  1.38629  1.38629
          0.00307  6.48205  6.48205  1.46634  0.26236  1.09745  0.40605
     13   2.58622  0.92934  1.74118  1.03685     13 c - - -
          1.38629  1.38629  1.38629  1.38629
          0.00285  6.55505  6.55505  1.46634  0.26236  1.43596  0.27166
     14   2.48080  2.52377  1.90594  0.37472     14 t - - -
          1.38629  1.38629  1.38629  1.38629
          0.00515  6.57215  5.58917  1.46634  0.26236  1.43596  0.27166
     15   1.56965  2.79620  0.45221  2.35789     15 g - - -
          1.38629  1.38629  1.38629  1.38629
          0.00269  6.61344  6.61344  1.46634  0.26236  1.51252  0.24892
     16   1.68252  3.37038  0.29907  3.26458     16 g - - -
          1.38629  1.38629  1.38629  1.38629
          0.08810  6.63223  2.48879  1.46634  0.26236  1.51252  0.24892
     17   2.28048  3.73064  0.19203  3.02613     17 g - - -
          1.38629  1.38629  1.38629  1.38629
          0.00593  6.56078  5.40373  1.46634  0.26236  2.54125  0.08204
     18   3.86237  2.94432  2.05550  0.22525     18 t - - -
          1.38629  1.38629  1.38629  1.38629
          0.00277  6.58242  6.58242  1.46634  0.26236  2.47384  0.08802
     19   2.69483  0.46784  2.29752  1.58189     19 c - - -
          1.38629  1.38629  1.38629  1.38629
          0.09294  6.59793  2.43742  1.46634  0.26236  0.21431  1.64556
     20   1.34714  2.73680  0.51085  2.58684     20 g - - -
          1.95508  2.28124  0.62879  1.50035
          3.61335  1.64425  0.24861  1.67750  0.20683  2.82284  0.06128
     21   2.70858  4.51699  0.09945  4.06785     32 G - - -
          1.38629  1.38629  1.38629  1.38629
          0.04182  7.99965  3.20354  1.46634  0.26236  4.88529  0.00759
     22   2.03452  3.86012  0.19085  3.81952     33 g - - -
          1.38629  1.38629  1.38629  1.38629
          0.04296  8.41530  3.17414  1.46634  0.26236  3.51408  0.03023
     23   0.25223  4.67053  1.61146  4.27053     34 a - - -
          1.38629  1.38629  1.38629  1.38629
          0.00188  8.48318  6.39180  1.46634  0.26236  4.70460  0.00909
     24   0.09239  4.21493  2.92019  3.93446     35 A - - -
          1.38629  1.38629  1.38629  1.38629
          0.00198  8.53933  6.32984  1.46634  0.26236  2.69195  0.07015
     25   0.35352  4.05938  2.68656  1.54922     36 a - - -
          1.38629  1.38629  1.38629  1.38629
          0.00182  8.57429  6.41700  1.46634  0.26236  3.86257  0.02124
     26   1.34608  3.85803  0.41169  2.88054     37 g - - -
          1.38629  1.38629  1.38629  1.38629
          0.00190  8.64972  6.36145  1.46634  0.26236  5.18948  0.00559
     27   2.05647  3.79280  0.20110  3.45047     38 g - - -
          1.38629  1.38629  1.38629  1.38629
          0.00034  8.68245  8.68245  1.46634  0.26236  4.35738  0.01289
     28   2.27385  4.02970  0.17261  3.27448     39 g - - -
          1.38629  1.38629  1.38629  1.38629
          0.00167  8.71757  6.49706  1.46634  0.26236  3.85567  0.02139
     29   2.39359  3.36429  0.18128  3.22109     40 g - - -
          1.38629  1.38629  1.38629  1.38629
          0.00527  8.73672  5.27881  1.46634  0.26236  4.19250  0.01522
     30   2.64988  1.10320  1.63321  0.91073     41 t - - -
          1.38629  1.38629  1.38629  1.38629
          0.00226  8.74315  6.16550  1.46634  0.26236  1.53377  0.24299
     31   2.87344  2.16342  2.65708  0.27653     42 t - - -
          1.38629  1.38629  1.38629  1.38629
          0.00322  8.78957  5.78848  1.46634  0.26236  3.76672  0.02340
     32   1.96348  3.01484  0.47752  1.65939     43 g - - -
          1.38629  1.38629  1.38629  1.38629
          0.00113  8.80064  6.92995  1.46634  0.26236  3.44505  0.03242
     33   1.42195  3.34370  0.41115  2.80410     44 g - - -
          1.38629  1.38629  1.38629  1.38629
          0.02325  8.81667  3.77935  1.46634  0.26236  4.04569  0.01765
     34   2.20791  3.42336  0.20909  3.07605     45 g - - -
          1.38629  1.38629  1.38629  1.38629
          0.00383  8.80637  5.60593  1.46634  0.26236  3.37044  0.03498
     35   2.31443  3.85583  0.20043  2.78646     46 g - - -
          1.38020  2.00510  0.82200  1.74712
          0.00571  6.20500  5.60531  1.05135  0.42996  3.75161  0.02376
     36   3.45483  2.97156  2.54000  0.17636     50 t - - -
          1.38629  1.38629  1.38629  1.38629
          0.00529  8.82383  5.27348  1.46634  0.26236  1.73023  0.19510
     37   3.07338  0.49824  2.32990  1.39099     51 c - - -
          1.38629  1.38629  1.38629  1.38629
          0.02287  8.84712  3.79556  1.46634  0.26236  2.10438  0.13002
     38   1.58079  3.14786  0.37374  2.76325     52 g - - -
          1.27257  1.51463  1.51463  1.27257
          0.00168  7.52508  6.77634  0.99728  0.46026  0.34876  1.22269
     39   3.06091  2.87958  2.51428  0.20325     55 t - - -
          2.30180  1.72113  0.98377  1.05798
          0.04614  3.49947  4.20765  1.40990  0.27994  3.93797  0.01968
     40   2.16967  3.24832  0.24121  2.79253     63 g - - -
          1.38629  1.38629  1.38629  1.38629
          0.01347  8.92102  4.32419  1.46634  0.26236  0.78048  0.61283
     41   2.34994  3.88373  0.17610  3.08974     64 g - - -
          1.38629  1.38629  1.38629  1.38629
          0.01424  8.93874  4.26824  1.46634  0.26236  1.87684  0.16614
     42   3.41565  2.99696  2.70157  0.16239     65 t - - -
          1.38629  1.38629  1.38629  1.38629
          0.01014  8.93567  4.60905  1.46634  0.26236  2.96498  0.05294
     43   2.31864  3.33913  0.22669  2.67431     66 g - - -
          1.81306  1.81306  0.92952  1.27673
          0.01759  6.84395  4.11221  1.16091  0.37571  1.79410  0.18185
     44   2.33057  3.47906  0.17903  3.32871     70 g - - -
          1.38629  1.38629  1.38629  1.38629
          0.04579  8.93286  3.10935  1.46634  0.26236  1.31396  0.31301
     45   3.25827  3.05362  2.74585  0.16233     71 t - - -
          1.55366  1.55366  1.15768  1.33620
          0.05584  7.68033  2.92152  1.23572  0.34337  0.81539  0.58423
     46   0.24281  3.49088  2.39233  2.36781     75 a - - -
          1.38629  1.38629  1.38629  1.38629
          0.03569  8.90377  3.35450  1.46634  0.26236  0.97575  0.47306
     47   1.80191  3.35604  0.28810  2.98664     76 g - - -
          0.95417  2.68089  2.35691  0.79484
          0.36905  3.90733  1.24300  0.69613  0.69017  1.33970  0.30371
     48   2.59181  0.43261  2.49560  1.64063     80 c - - -
          1.16955  1.47041  1.47041  1.47041
          0.06624  7.10721  2.76033  0.61477  0.77820  4.41138  0.01221
     49   0.22864  2.42368  2.62592  3.13695     82 a - - -
          1.38629  1.38629  1.38629  1.38629
          0.01051  8.55671  4.57897  1.46634  0.26236  0.14578  1.99766
     50   2.21717  0.57659  2.03690  1.61526     83 c - - -
          1.32751  0.71906  2.61322  1.74666
          2.02707  0.21606  2.77111  1.55663  0.23679  2.31773  0.10369
     51   1.94125  0.56494  2.46154  1.59564    114 c - - -
          2.64681  0.37671  2.91925  1.66583
          2.72354  0.34967  1.47213  0.69873  0.68760  3.08048  0.04703
     52   0.66229  1.26802  2.46689  2.13629    123 a - - -
          1.38629  1.38629  1.38629  1.38629
          0.09238  8.69903  2.42955  1.46634  0.26236  1.03734  0.43757
     53   1.12907  1.25170  2.74484  1.11966    124 t - - -
          1.27667  1.49960  1.49960  1.29246
          0.02865  7.00881  3.59941  0.51091  0.91617  3.79925  0.02264
     54   0.66255  1.34998  2.13422  2.23603    126 a - - -
          1.38629  1.38629  1.38629  1.38629
          0.00916  8.74927  4.71557  1.46634  0.26236  1.39578  0.28454
     55   1.49980  0.82833  2.80026  1.27563    127 c - - -
          1.38629  1.38629  1.38629  1.38629
          0.10666  8.83448  2.29239  1.46634  0.26236  1.25554  0.33536
     56   1.48520  0.70856  3.38135  1.39760    128 c - - -
          1.38629  1.38629  1.38629  1.38629
          0.17757  8.81340  1.81676  1.46634  0.26236  1.07066  0.41974
     57   2.52497  0.45000  2.90144  1.48119    129 c - - -
          1.38629  1.38629  1.38629  1.38629
          0.15438  8.75786  1.94563  1.46634  0.26236  0.84928  0.55813
     58   2.02765  1.60219  3.60312  0.44681    130 t - - -
          1.38629  1.38629  1.38629  1.38629
          0.03649  8.78147  3.33312  1.46634  0.26236  3.38639  0.03442
     59   0.43038  2.46980  2.81942  1.58232    131 a - - -
          1.38629  1.38629  1.38629  1.38629
          0.01023  8.75919  4.60291  1.46634  0.26236  1.60120  0.22521
     60   1.73694  2.37265  0.43475  2.48552    132 g - - -
          2.32144  1.44001  2.66087  0.51910
          0.06921  3.60041  3.23000  0.02121  3.86368  3.20269  0.04150
     61   2.36770  2.73973  3.20647  0.22162    134 t - - -
          1.38629  1.38629  1.38629  1.38629
          0.06501  8.80388  2.76798  1.46634  0.26236  1.83622  0.17366
     62   2.34803  1.01016  2.12885  0.86439    135 t - - -
          1.38629  1.38629  1.38629  1.38629
          0.14969  8.79745  1.97419  1.46634  0.26236  1.39310  0.28542
     63   0.27378  2.71977  2.65276  2.27152    136 a - - -
          1.38629  1.38629  1.38629  1.38629
          0.00939  8.74548  4.69042  1.46634  0.26236  0.91090  0.51444
     64   2.68150  0.49882  2.23190  1.52801    137 c - - -
          1.47211  1.16579  1.47211  1.47211
          0.10231  7.37321  2.33699  0.60765  0.78664  4.06874  0.01725
     65   2.90990  0.35769  2.71408  1.71500    139 c - - -
          1.26589  1.30551  1.49840  1.49840
          0.00708  7.05356  5.08468  0.51451  0.91079  1.02160  0.44632
     66   0.38733  1.85119  2.49770  2.50338    141 a - - -
          1.38629  1.38629  1.38629  1.38629
          0.07740  8.91772  2.59901  1.46634  0.26236  3.09912  0.04614
     67   2.93296  0.48193  2.99893  1.27536    142 c - - -
          1.24707  2.68638  0.60296  2.32953
          0.21106  1.70149  4.84511  0.00313  5.76749  1.28175  0.32511
     68   1.10306  1.94099  1.23521  1.45324    144 a - - -
          1.52230  2.57120  2.06422  0.54744
          1.64492  0.22332  4.94606  0.30640  1.33215  3.61572  0.02727
     69   3.02385  1.38182  3.13841  0.42020    158 t - - -
          1.38629  1.38629  1.38629  1.38629
          0.16959  8.92795  1.85883  1.46634  0.26236  3.83371  0.02187
     70   1.84739  3.21493  0.32457  2.53377    159 g - - -
          1.50028  1.50028  1.28399  1.28399
          0.02160  7.53946  3.87112  1.02052  0.44693  1.58341  0.22976
     71   2.82949  2.63635  3.25443  0.18545    162 t - - -
          1.38629  1.38629  1.38629  1.38629
          0.01876  8.83544  3.99337  1.46634  0.26236  3.33765  0.03617
     72   1.73853  3.06378  0.33203  2.81262    163 g - - -
          1.47317  1.47317  1.16346  1.47317
          0.01814  7.29746  4.05704  0.60328  0.79190  3.30527  0.03738
     73   2.04781  2.88130  0.28768  2.73464    165 g - - -
          1.41961  1.41961  1.41961  1.29254
          0.01169  7.97442  4.48451  0.94220  0.49392  3.57387  0.02845
     74   3.38303  2.54037  3.82467  0.14457    167 t - - -
          2.88424  2.93416  4.11099  0.13406
          1.01632  0.49838  3.48810  0.00173  6.35857  0.94685  0.49096
     75   2.10005  3.19221  3.07090  0.23561    170 t - - -
          1.63676  0.98384  1.25659  1.91803
          0.01079  5.56558  4.97508  0.12807  2.11852  2.69130  0.07020
     76   1.88265  1.43677  3.74904  0.53345    172 t - - -
          1.76341  1.76341  1.76341  0.72233
          0.01155  6.13681  4.67545  0.33897  1.24655  3.25067  0.03952
     77   1.75085  0.66472  3.11602  1.31818    175 c - - -
          1.46229  1.18783  1.46229  1.46229
          0.03012  7.51910  3.53621  0.65118  0.73695  1.63147  0.21771
     78   0.72451  1.24627  2.29449  2.06317    177 a - - -
          1.38629  1.38629  1.38629  1.38629
          0.38038  8.95741  1.15115  1.46634  0.26236  3.35842  0.03541
     79   2.57033  2.12853  2.09392  0.38379    178 t - - -
          1.38629  1.38629  1.38629  1.38629
          0.17447  8.58912  1.83312  1.46634  0.26236  2.37559  0.09757
     80   3.03382  2.27520  3.96871  0.18610    179 t - - -
          2.09412  0.55497  3.39702  1.31209
          2.16667  0.36797  1.64350  0.93689  0.49733  0.33330  1.26073
     81   0.55390  2.00374  2.31310  1.65279    186 a - - -
          1.32907  1.16032  1.55616  1.55616
          0.13655  6.75485  2.06770  0.38173  1.14785  2.17674  0.12037
     82   1.65252  0.94584  3.30430  0.95880    188 c - - -
          1.44620  1.44620  1.44620  1.22550
          0.01700  7.54828  4.11462  0.73719  0.65096  4.07862  0.01708
     83   2.64360  1.71321  3.35897  0.33710    190 t - - -
          1.38629  1.38629  1.38629  1.38629
          0.27447  8.78626  1.42765  1.46634  0.26236  1.93419  0.15612
     84   1.24789  0.92309  1.88551  1.80880    191 c - - -
          1.52030  0.70699  3.10818  1.41246
          1.45600  0.34032  2.89517  0.03041  3.50810  5.68105  0.00342
     85   2.08311  1.22872  3.27133  0.60727    196 t - - -
          1.47408  1.47408  1.47408  1.16144
          0.02307  7.00361  3.82148  0.59955  0.79641  1.26383  0.33208
     86   0.42088  2.22435  2.01993  2.27566    198 a - - -
          1.38629  1.38629  1.38629  1.38629
          0.19415  8.74211  1.73555  1.46634  0.26236  3.99985  0.01849
     87   1.40660  1.05348  1.39819  1.83723    199 c - - -
          1.38629  1.38629  1.38629  1.38629
          0.03238  8.55888  3.45244  1.46634  0.26236  1.69052  0.20386
     88   1.72194  1.15517  1.17663  1.61968    200 c - - -
          1.12628  1.44308  1.88556  1.24542
          1.41242  0.35512  2.89395  0.52355  0.89750  1.38225  0.28903
     89   2.54226  0.62305  3.05063  1.08566    203 c - - -
          1.48392  1.68043  1.68043  0.91462
          0.13797  6.08620  2.06668  0.23810  1.55175  1.02079  0.44677
     90   1.27727  1.45569  1.85994  1.10177    205 t - - -
          1.05733  0.78636  3.61854  1.77021
          0.81766  0.74271  2.49239  0.98000  0.47050  0.65229  0.73575
     91   1.63049  1.00958  3.24313  0.91441    210 t - - -
          1.58961  0.52206  3.73627  1.72120
          0.26211  2.05607  2.27673  0.00407  5.50597  1.71688  0.19800
     92   1.45625  1.13971  1.68997  1.33767    212 c - - -
          1.42896  1.15282  1.50719  1.49984
          0.04804  5.11240  3.19714  0.93245  0.50020  2.62144  0.07548
     93   1.44894  0.89489  1.59522  1.87298    216 c - - -
          1.38629  1.38629  1.38629  1.38629
          0.01814  8.86755  4.02633  1.46634  0.26236  1.44531  0.26876
     94   0.88517  1.30727  3.24566  1.28066    217 a - - -
          0.55290  1.41240  3.12310  1.98672
          0.64274  0.78117  4.11773  0.05056  3.00973  1.78015  0.18466
     95   1.01548  1.24844  3.26233  1.16308    221 a - - -
          1.50818  1.50818  1.50818  1.09046
          0.05399  7.13679  2.96116  0.48641  0.95407  2.93263  0.05473
     96   1.68514  1.02969  3.39647  0.85809    223 t - - -
          1.38629  1.38629  1.38629  1.38629
          0.15560  8.91998  1.93818  1.46634  0.26236  1.26759  0.33060
     97   1.18118  0.97860  3.39056  1.26034    224 c - - -
          1.24037  0.86920  3.35025  1.36117
          1.54693  0.28660  3.31632  0.98607  0.46687  1.05668  0.42711
     98   1.69505  0.67923  3.44674  1.28174    237 c - - -
          1.02981  0.87200  3.46112  1.64292
          1.18597  0.68610  1.65540  0.00103  6.87662  3.78108  0.02306
     99   0.66386  1.15638  3.04970  2.09440    239 a - - -
          1.38629  1.38629  1.38629  1.38629
          0.07478  8.74559  2.63258  1.46634  0.26236  2.18689  0.11908
    100   1.99110  0.84101  3.40849  0.91858    240 c - - -
          0.84479  2.06693  2.90501  0.94410
          0.18866  2.76703  2.21561  0.01017  4.59366  2.46918  0.08845
    101   1.82933  2.17193  3.22358  0.37730    242 t - - -
          1.38629  1.38629  1.38629  1.38629
          0.15713  8.67495  1.92940  1.46634  0.26236  0.93375  0.49936
    102   0.72433  1.61790  2.85459  1.34917    243 a - - -
          1.27334  1.42697  1.42697  1.42697
          0.04476  7.80427  3.13818  0.87477  0.53949  2.67561  0.07135
    103   0.76408  1.35612  2.50130  1.63679    245 a - - -
          1.38629  1.38629  1.38629  1.38629
          0.03171  8.77274  3.47185  1.46634  0.26236  1.36702  0.29419
    104   1.00896  1.02746  2.70736  1.55698    246 a - - -
          1.37977  1.13068  1.54751  1.54751
          0.05539  6.78772  2.94213  0.39739  1.11495  2.60395  0.07686
    105   0.55416  1.71246  1.97689  2.23941    248 a - - -
          1.38629  1.38629  1.38629  1.38629
          0.27815  8.84097  1.41604  1.46634  0.26236  2.51462  0.08435
    106   1.28903  0.76293  3.26997  1.51342    249 c - - -
          1.38629  1.38629  1.38629  1.38629
          0.02385  8.60519  3.75551  1.46634  0.26236  1.21601  0.35156
    107   1.01424  1.06578  3.40881  1.34791    250 a - - -
          1.77558  1.20024  3.45947  0.69706
          0.39314  1.41492  2.49956  0.02931  3.54446  2.00242  0.14504
    108   1.92140  1.78285  2.49843  0.50546    254 t - - -
          1.38629  1.38629  1.38629  1.38629
          0.06072  8.77948  2.83427  1.46634  0.26236  1.77176  0.18637
    109   1.77941  1.60748  2.35899  0.62296    255 t - - -
          0.94041  1.38794  2.70551  1.22721
          2.33113  0.12758  3.79006  1.50648  0.25063  0.44167  1.02991
    110   0.48446  1.82695  3.08886  1.72871    272 a - - -
          0.76915  1.56360  2.85532  1.31054
          3.16124  0.11530  2.71019  2.55375  0.08098  2.86297  0.05879
    111   0.76142  1.75506  2.72152  1.22307    316 a - - -
          1.38629  1.38629  1.38629  1.38629
          0.34608  8.99510  1.22956  1.46634  0.26236  1.32000  0.31079
    112   0.78114  1.66347  2.34405  1.35985    317 a - - -
          0.84073  1.56183  1.98410  1.50802
          2.47547  0.11318  3.77721  1.51474  0.24829  3.05776  0.04813
    113   1.17667  1.86363  2.28765  0.83222    327 t - - -
          1.39265  1.42272  2.00446  0.97872
          1.12288  0.55498  2.29686  0.00110  6.81623  3.59597  0.02782
    114   1.57799  1.32781  1.40370  1.26278    329 t - - -
          1.38629  1.38629  1.38629  1.38629
          0.10991  8.67742  2.26416  1.46634  0.26236  2.62586  0.07513
    115   1.21290  1.79681  1.69201  1.04216    330 t - - -
          0.43329  2.54264  1.78357  2.25447
          0.91355  0.61886  2.80772  0.00133  6.62114  3.79989  0.02263
    116   0.66399  2.43639  2.14456  1.27078    332 a - - -
          1.38629  1.38629  1.38629  1.38629
          0.10562  8.58339  2.30209  1.46634  0.26236  1.98439  0.14788
    117   0.57878  1.89624  2.84972  1.46350    333 a - - -
          1.06998  1.49846  2.23260  1.12006
          2.29083  0.19284  2.60091  0.58537  0.81395  1.98925  0.14711
    118   0.76482  1.17277  2.93505  1.76056    340 a - - -
          1.38629  1.38629  1.38629  1.38629
          0.08993  8.64724  2.45538  1.46634  0.26236  1.85194  0.17071
    119   1.69886  1.79293  2.59831  0.55124    341 t - - -
          1.38629  1.38629  1.38629  1.38629
          0.09954  8.68348  2.35837  1.46634  0.26236  2.96618  0.05287
    120   1.81261  1.21689  2.77741  0.73726    342 t - - -
          1.38629  1.38629  1.38629  1.38629
          0.04329  8.62585  3.16566  1.46634  0.26236  2.64350  0.07377
    121   1.59949  1.10273  2.44154  0.97019    343 t - - -
          1.38629  1.38629  1.38629  1.38629
          0.03698  8.64141  3.32064  1.46634  0.26236  1.95072  0.15335
    122   1.03182  1.33993  1.80632  1.52546    344 a - - -
          0.51801  1.83077  2.63888  1.75699
          1.48232  0.29706  3.51011  0.62499  0.76630  1.81884  0.17699
    123   0.43906  1.94597  2.70744  1.92549    348 a - - -
          1.38629  1.38629  1.38629  1.38629
          0.26031  8.79211  1.47388  1.46634  0.26236  2.34240  0.10103
    124   0.33490  2.21463  2.75414  2.19165    349 a - - -
          1.38629  1.38629  1.38629  1.38629
          0.06687  8.59859  2.74109  1.46634  0.26236  1.24452  0.33979
    125   0.40597  2.20611  2.83157  1.80412    350 a - - -
          0.93889  1.63413  1.91816  1.32074
          1.66079  0.23462  3.95588  1.45393  0.26612  1.52393  0.24571
    126   0.73088  2.06586  2.28090  1.23921    362 a - - -
          1.38629  1.38629  1.38629  1.38629
          0.15744  8.89025  1.92734  1.46634  0.26236  3.70106  0.02501
    127   1.60249  0.64169  2.85025  1.54004    363 c - - -
          1.38629  1.38629  1.38629  1.38629
          0.04198  8.74479  3.19536  1.46634  0.26236  2.49003  0.08655
    128   1.78033  2.10342  2.70636  0.44223    364 t - - -
          1.38629  1.38629  1.38629  1.38629
          0.02966  8.75678  3.53826  1.46634  0.26236  1.54014  0.24125
    129   1.03061  0.93246  2.87128  1.64507    365 c - - -
          1.05419  1.52037  3.14341  0.94223
          2.56217  0.09631  4.22124  1.62564  0.21913  4.73695  0.00880
    130   0.85793  1.90085  2.50292  1.06516    375 a - - -
          1.38629  1.38629  1.38629  1.38629
          0.19180  8.84726  1.74647  1.46634  0.26236  2.82394  0.06121
    131   1.51545  1.65750  1.99568  0.79020    376 t - - -
          1.26676  1.42954  1.42954  1.42954
          0.21396  7.67283  1.64946  0.85350  0.55499  2.34597  0.10065
    132   0.96302  2.27864  2.48984  0.83722    378 t - - -
          1.43017  1.43017  1.43017  1.26516
          0.02748  7.53222  3.62787  0.84845  0.55875  2.36040  0.09914
    133   0.85170  2.26056  2.54388  0.94043    380 a - - -
          1.38629  1.38629  1.38629  1.38629
          0.01754  8.62227  4.06237  1.46634  0.26236  1.33542  0.30523
    134   0.81862  2.46728  1.56588  1.32711    381 a - - -
          1.38629  1.38629  1.38629  1.38629
          0.04777  8.81477  3.06833  1.46634  0.26236  2.31214  0.10430
    135   0.41706  2.97688  1.84730  2.02188    382 a - - -
          0.44622  2.32711  2.20351  1.88411
          0.05915  4.23834  3.14643  0.04010  3.23625  1.84949  0.17117
    136   0.23086  3.34690  2.79066  2.21113    384 a - - -
          1.38629  1.38629  1.38629  1.38629
          0.09828  8.85216  2.37021  1.46634  0.26236  1.63882  0.21593
    137   0.24637  2.68872  3.12580  2.23962    385 a - - -
          1.38629  1.38629  1.38629  1.38629
          0.02768  8.84857  3.60602  1.46634  0.26236  1.06468  0.42288
    138   0.33426  2.37074  2.49106  2.22657    386 a - - -
          0.66829  2.07723  1.42613  2.10455
          2.86665  0.23186  1.89674  1.19062  0.36245  2.38517  0.09659
    139   1.21495  2.07540  1.20256  1.28249    400 g - - -
          1.38629  1.38629  1.38629  1.38629
          0.31339  8.84659  1.31345  1.46634  0.26236  2.81702  0.06165
    140   1.06880  2.16460  1.11752  1.53854    401 a - - -
          1.38629  1.38629  1.38629  1.38629
          0.31753  8.56449  1.30245  1.46634  0.26236  0.80662  0.59125
    141   0.77442  2.40503  1.46225  1.52762    402 a - - -
          1.38629  1.38629  1.38629  1.38629
          0.04495  8.70376  3.12839  1.46634  0.26236  1.01886  0.44786
    142   0.84172  2.55096  0.91520  2.40143    403 a - - -
          1.38629  1.38629  1.38629  1.38629
          0.06267  8.89273  2.80336  1.46634  0.26236  1.49889  0.25280
    143   1.29952  2.10884  0.80260  1.84644    404 g - - -
          1.34350  1.41203  1.19770  1.64230
          0.48251  1.01331  3.92436  1.31642  0.31210  0.62769  0.76319
    144   1.08928  2.44196  1.23967  1.24802    411 a - - -
          1.31307  2.16748  0.87577  1.60943
          1.19025  0.40997  3.43638  1.50947  0.24978  1.45178  0.26677
    145   1.71495  2.49490  0.46111  2.23547    424 g - - -
          1.38629  1.38629  1.38629  1.38629
          0.32179  9.09726  1.29085  1.46634  0.26236  2.65161  0.07315
    146   1.52011  2.22272  0.49556  2.75250    425 g - - -
          0.93464  1.36450  2.50512  1.30897
          0.01721  5.06215  4.53436  0.72561  0.66170  2.61411  0.07605
    147   1.75401  0.57012  2.41444  1.75999    428 c - - -
          1.38629  1.38629  1.38629  1.38629
          0.01009  8.83251  4.61602  1.46634  0.26236  3.17065  0.04288
    148   1.27616  0.99730  3.07265  1.18508    429 c - - -
          1.38629  1.38629  1.38629  1.38629
          0.00638  8.84547  5.08117  1.46634  0.26236  3.05861  0.04809
    149   1.72043  1.80674  2.69097  0.52932    430 t - - -
          1.38629  1.38629  1.38629  1.38629
          0.01556  8.86273  4.18003  1.46634  0.26236  0.76048  0.63007
    150   1.42368  2.30973  0.78492  1.59098    431 g - - -
          1.79118  1.11187  2.15483  0.94580
          0.58776  0.83180  4.69238  0.24232  1.53621  2.28176  0.10770
    151   2.68731  1.59301  3.19429  0.37451    435 t - - -
          1.52127  1.52127  1.52127  1.06509
          0.11002  7.15941  2.26912  0.45301  1.00981  2.14924  0.12395
    152   1.29113  0.99897  2.74768  1.22860    437 c - - -
          1.49847  1.36965  2.23389  0.87894
          0.09149  4.99757  2.51734  0.07075  2.68378  1.24819  0.33831
    153   1.32700  2.58741  3.53338  0.46155    439 t - - -
          2.17046  0.72769  1.62275  1.58234
          0.01321  5.11665  4.94414  0.07874  2.58066  0.39981  1.11003
    154   2.70298  1.06631  3.84509  0.56681    441 t - - -
          3.11583  0.92706  4.34547  0.60335
          0.45121  1.06346  4.02376  0.75993  0.63055  0.98996  0.46457
    155   3.42722  0.37626  4.00842  1.33584    446 c - - -
          1.38629  1.38629  1.38629  1.38629
          0.09586  9.19551  2.39353  1.46634  0.26236  1.67949  0.20637
    156   3.41731  0.22913  3.74086  1.90891    447 c - - -
          1.38629  1.38629  1.38629  1.38629
          0.53948  9.11357  0.87506  1.46634  0.26236  2.26126  0.11006
    157   2.67465  0.27070  3.74538  1.93379    448 c - - -
          1.38629  1.38629  1.38629  1.38629
          0.83375  8.60010  0.57022  1.46634  0.26236  0.41797  1.07406
    158   1.88999  0.36485  3.57401  2.06688    449 c - - -
          1.38629  1.38629  1.38629  1.38629
          0.15259  8.65057  1.95659  1.46634  0.26236  0.09187  2.43297
    159   0.91678  0.96894  3.70355  1.62927    450 a - - -
          1.37593  1.07393  1.67406  1.52213
          0.13984  6.47949  2.04820  0.24306  1.53351  1.57623  0.23162
    160   0.56789  1.34113  3.50592  1.95396    452 a - - -
          1.18933  1.34163  1.63181  1.43304
          0.01296  7.15501  4.41528  0.88123  0.53490  0.17090  1.85089
    161   1.68565  0.98009  3.49395  0.89400    455 t - - -
          1.87701  0.87489  2.61753  1.02984
          0.05872  4.44950  3.09354  0.03308  3.42527  1.02865  0.44237
    162   1.97368  3.01683  1.71328  0.45914    457 t - - -
          2.88314  0.39699  3.94245  1.37714
          0.15476  2.05281  4.19958  0.00316  5.76000  0.44030  1.03238
    163   1.03687  2.85048  0.90107  1.70658    459 g - - -
          1.44798  1.44798  1.44798  1.22123
          0.00536  7.96862  5.29851  0.72661  0.66077  0.80178  0.59517
    164   0.14945  3.47615  3.15271  2.73096    461 a - - -
          0.28868  2.61192  2.63841  2.24543
          0.04992  4.46672  3.29110  0.03249  3.44302  1.06053  0.42506
    165   0.57528  2.68121  3.85301  1.05626    463 a - - -
          1.45237  1.30056  2.11363  0.98669
          0.03014  6.12591  3.59332  0.75327  0.63643  0.99806  0.45981
    166   2.56328  2.42091  3.99834  0.20363    466 t - - -
          1.38629  1.38629  1.38629  1.38629
          0.01183  9.23592  4.45124  1.46634  0.26236  1.17332  0.37010
    167   1.34347  3.16274  3.74647  0.39578    467 t - - -
          1.38629  1.38629  1.38629  1.38629
          0.00247  9.24610  6.04297  1.46634  0.26236  1.13404  0.38821
    168   0.52619  1.64221  2.43104  2.05846    468 a - - -
          1.38629  1.38629  1.38629  1.38629
          0.00619  9.26524  5.10373  1.46634  0.26236  2.07380  0.13434
    169   1.59940  0.48584  3.22041  1.94587    469 c - - -
          1.38629  1.38629  1.38629  1.38629
          0.01097  9.26847  4.52661  1.46634  0.26236  0.42465  1.06132
    170   1.43138  0.50399  3.07742  2.19980    470 c - - -
          1.38629  1.38629  1.38629  1.38629
          0.00462  9.28799  5.39953  1.46634  0.26236  1.40918  0.28017
    171   0.77042  0.94532  3.08782  2.27277    471 a - - -
          1.38629  1.38629  1.38629  1.38629
          0.06453  9.28600  2.77423  1.46634  0.26236  0.81162  0.58723
    172   0.22214  2.23435  2.89872  3.29579    472 a - - -
          1.38629  1.38629  1.38629  1.38629
          0.11537  9.23122  2.21767  1.46634  0.26236  2.95838  0.05330
    173   0.14360  2.66815  3.42000  3.45240    473 a - - -
          1.38629  1.38629  1.38629  1.38629
          0.01038  9.11203  4.58378  1.46634  0.26236  3.83568  0.02182
    174   0.12187  3.07456  3.36969  3.37775    474 a - - -
          1.38629  1.38629  1.38629  1.38629
          0.00401  9.09845  5.54915  1.46634  0.26236  5.15810  0.00577
    175   0.12896  3.20525  3.07448  3.37479    475 a - - -
          1.38629  1.38629  1.38629  1.38629
          0.01412  9.08626  4.27503  1.46634  0.26236  4.56495  0.01046
    176   0.17932  3.03039  2.56370  3.24818    476 a - - -
          1.38629  1.38629  1.38629  1.38629
          0.01178  9.06695  4.45712  1.46634  0.26236  5.41010  0.00448
    177   0.26223  3.25193  1.85463  3.33948    477 a - - -
          1.38629  1.38629  1.38629  1.38629
          0.00112  9.11195  6.89794  1.46634  0.26236  5.42974  0.00439
    178   0.30472  3.27443  1.70654  3.13877    478 a - - -
          1.38629  1.38629  1.38629  1.38629
          0.19101  9.10330  1.75005  1.46634  0.26236  5.24668  0.00528
    179   0.15142  3.20290  3.08362  2.91743    479 a - - -
          1.38629  1.38629  1.38629  1.38629
          0.00674  8.82572  5.02563  1.46634  0.26236  2.45010  0.09024
    180   0.14259  3.22012  2.81566  3.40908    480 a - - -
          1.70202  2.29096  0.79812  1.32297
          0.01014  4.96438  5.77324  0.38182  1.14765  4.15661  0.01578
    181   0.25560  3.98876  1.65192  4.17728    483 a - - -
          1.38629  1.38629  1.38629  1.38629
          0.00822  8.76463  4.82505  1.46634  0.26236  5.55612  0.00387
    182   0.39871  3.45160  1.25022  4.53930    484 a - - -
          1.38629  1.38629  1.38629  1.38629
          0.00364  8.56950  5.67158  1.46634  0.26236  0.69885  0.68747
    183   0.19057  4.04597  1.94967  4.29035    485 a - - -
          1.38629  1.38629  1.38629  1.38629
          0.06508  8.41615  2.76801  1.46634  0.26236  1.20347  0.35689
    184   0.10964  3.36764  2.94747  4.08055    486 a - - -
          1.38629  1.38629  1.38629  1.38629
          0.02326  8.39037  3.78263  1.46634  0.26236  0.57541  0.82662
    185   0.13546  3.60663  3.21760  2.82192    487 a - - -
          1.38629  1.38629  1.38629  1.38629
          0.02819  8.49435  3.59030  1.46634  0.26236  0.78496  0.60906
    186   0.64217  2.87777  0.99857  3.01216    488 a - - -
          1.38629  1.38629  1.38629  1.38629
          0.02316  8.51051  3.78580  1.46634  0.26236  1.72804  0.19557
    187   1.09254  2.69104  0.60395  2.99221    489 g - - -
          0.34677  2.09921  2.55827  2.37473
          0.08701  4.15931  2.69240  1.42934  0.27374  1.56925  0.23345
    188   2.00953  1.79132  0.61444  1.84350    498 g - - -
          1.38629  1.38629  1.38629  1.38629
          0.01466  8.41003  4.24562  1.46634  0.26236  0.35975  1.19684
    189   1.82125  2.86626  0.33670  2.70089    499 g - - -
          1.38629  1.38629  1.38629  1.38629
          0.00666  8.51045  5.04520  1.46634  0.26236  1.99023  0.14695
    190   2.40565  1.30421  0.94323  1.39014    500 g - - -
          1.38629  1.38629  1.38629  1.38629
          0.07524  8.51117  2.62726  1.46634  0.26236  1.52902  0.24430
    191   2.22738  2.58529  1.09474  0.72942    501 t - - -
          1.38629  1.38629  1.38629  1.38629
          0.02224  8.44492  3.82666  1.46634  0.26236  0.49356  0.94276
    192   2.06400  3.02854  1.05743  0.73956    502 t - - -
          1.38629  1.38629  1.38629  1.38629
          0.02139  8.49550  3.86526  1.46634  0.26236  0.98280  0.46882
    193   0.84441  3.25892  0.75391  2.79303    503 g - - -
          1.38629  1.38629  1.38629  1.38629
          0.00986  8.49284  4.64568  1.46634  0.26236  1.20584  0.35588
    194   1.73268  3.69269  0.25677  3.69954    504 g - - -
          1.38629  1.38629  1.38629  1.38629
          0.00240  8.50057  6.11994  1.46634  0.26236  1.28625  0.32339
    195   2.14359  3.70608  0.22577  2.80854    505 g - - -
          1.38629  1.38629  1.38629  1.38629
          0.47043  8.51085  0.98065  1.46634  0.26236  2.09194  0.13176
    196   3.66810  2.87390  3.17490  0.13216    506 t - - -
          1.38629  1.38629  1.38629  1.38629
          0.10850  8.04789  2.27792  1.46634  0.26236  0.04490  3.12558
    197   2.42852  0.94630  0.99337  1.87515    507 c - - -
          2.45742  1.00243  0.92075  1.90287
          0.93382  0.86647  1.67923  0.71649  0.67033  1.49248  0.25465
    198   1.72163  1.41250  0.94720  1.66145    515 g - - -
          2.37453  2.54988  3.04843  0.24665
          0.75018  0.66700  4.23552  0.00196  6.23341  1.45709  0.26515
    199   2.30125  2.00411  0.97951  0.94266    517 t - - -
          1.38629  1.38629  1.38629  1.38629
          0.00634  8.33898  5.10185  1.46634  0.26236  0.04029  3.23174
    200   1.77008  3.56763  0.30087  2.79230    518 g - - -
          1.38629  1.38629  1.38629  1.38629
          0.00893  8.53846  4.74492  1.46634  0.26236  0.56938  0.83443
    201   3.39643  3.03571  2.99311  0.14118    519 t - - -
          1.38629  1.38629  1.38629  1.38629
          0.00208  8.53579  6.27832  1.46634  0.26236  0.48749  0.95234
    202   2.41107  1.14291  0.70528  2.32871    520 g - - -
          1.69681  1.69681  0.79807  1.69681
          0.06633  5.79751  2.79451  0.22612  1.59762  0.79703  0.59904
    203   2.42557  4.09286  0.65098  0.98525    522 g - - -
          1.38629  1.38629  1.38629  1.38629
          0.60243  8.48270  0.79338  1.46634  0.26236  0.17590  1.82448
    204   2.88329  3.08528  1.98980  0.27232    523 t - - -
          1.38629  1.38629  1.38629  1.38629
          0.04002  7.98210  3.24704  1.46634  0.26236  0.46150  0.99516
    205   1.72143  2.11260  1.28331  0.86003    524 t - - -
          1.55576  1.55576  1.55576  1.00263
          0.01032  6.22058  4.79443  0.38242  1.14637  3.46422  0.03180
    206   2.06609  0.96519  0.91679  2.37937    526 g - - -
          1.38629  1.38629  1.38629  1.38629
          0.28368  8.34506  1.39937  1.46634  0.26236  0.17182  1.84597
    207   3.49090  0.90765  3.74374  0.61177    527 t - - -
          1.38629  1.38629  1.38629  1.38629
          0.01587  8.28710  4.16752  1.46634  0.26236  1.58705  0.22882
    208   0.82842  0.88480  3.14510  2.23117    528 a - - -
          1.08646  1.47283  1.52782  1.53105
          1.81241  0.18658  4.96879  1.29783  0.31900  4.44361  0.01182
    209   0.61562  1.34677  2.22970  2.38537    543 a - - -
          1.38629  1.38629  1.38629  1.38629
          0.11642  8.32448  2.21042  1.46634  0.26236  0.14662  1.99231
    210   1.34076  1.50399  2.49551  0.83550    544 t - - -
          1.38629  1.38629  1.38629  1.38629
          0.02790  8.42457  3.60094  1.46634  0.26236  1.31528  0.31252
    211   1.64881  1.18850  3.62665  0.74142    545 t - - -
          1.38629  1.38629  1.38629  1.38629
          0.00617  8.43097  5.12699  1.46634  0.26236  0.75102  0.63844
    212   0.70674  1.03133  3.18848  2.21656    546 a - - -
          1.38629  1.38629  1.38629  1.38629
          0.00371  8.47857  5.65611  1.46634  0.26236  1.61876  0.22083
    213   2.56587  0.26116  3.76339  2.04190    547 c - - -
          1.38629  1.38629  1.38629  1.38629
          0.15157  8.48680  1.96298  1.46634  0.26236  2.72695  0.06766
    214   3.08681  0.23040  3.38880  2.06838    548 c - - -
          1.38629  1.38629  1.38629  1.38629
          0.11765  8.33572  2.20049  1.46634  0.26236  1.50630  0.25068
    215   1.80837  0.41120  3.79774  1.89177    549 c - - -
          1.38629  1.38629  1.38629  1.38629
          0.15951  8.26762  1.91607  1.46634  0.26236  0.71650  0.67032
    216   0.82471  0.81804  3.77331  2.32927    550 c - - -
          1.38629  1.38629  1.38629  1.38629
          0.00718  8.26857  4.97636  1.46634  0.26236  0.48938  0.94934
    217   0.29780  1.83739  2.99175  3.03417    551 a - - -
          1.38629  1.38629  1.38629  1.38629
          0.00475  8.43200  5.40006  1.46634  0.26236  1.01241  0.45153
    218   0.68526  1.20492  3.76928  1.75298    552 a - - -
          1.38629  1.38629  1.38629  1.38629
          0.11323  8.46330  2.23639  1.46634  0.26236  2.20340  0.11701
    219   0.24401  2.18722  3.47907  2.61103    553 a - - -
          1.38629  1.38629  1.38629  1.38629
          0.00611  8.35367  5.14084  1.46634  0.26236  1.89395  0.16308
    220   0.66957  1.02350  3.74233  2.25347    554 a - - -
          1.38629  1.38629  1.38629  1.38629
          0.03978  8.36824  3.25014  1.46634  0.26236  3.17281  0.04279
    221   0.90355  0.85635  3.55058  1.95581    555 c - - -
          2.91257  0.46841  3.38107  1.25298
          0.59123  0.81202  6.03497  0.00746  4.90255  4.20176  0.01508
    222   0.93357  1.93054  3.41092  0.84683    559 t - - -
          1.38629  1.38629  1.38629  1.38629
          0.00678  8.28945  5.03455  1.46634  0.26236  2.06803  0.13517
    223   0.24267  2.14243  3.05850  2.97313    560 a - - -
          1.38629  1.38629  1.38629  1.38629
          0.00765  8.26660  4.91058  1.46634  0.26236  1.15395  0.37890
    224   0.85892  2.00567  0.99614  2.62408    561 a - - -
          1.38629  1.38629  1.38629  1.38629
          0.08144  8.28184  2.55153  1.46634  0.26236  3.50062  0.03064
    225   0.85135  2.89896  2.86218  0.77449    562 t - - -
          1.38629  1.38629  1.38629  1.38629
          0.00430  8.14938  5.52037  1.46634  0.26236  3.56543  0.02869
    226   1.26347  0.98206  3.30116  1.18434    563 c - - -
          1.38629  1.38629  1.38629  1.38629
          0.00503  8.07644  5.35914  1.46634  0.26236  2.43475  0.09170
    227   0.26695  2.64350  3.00890  2.17302    564 a - - -
          1.38629  1.38629  1.38629  1.38629
          0.22102  7.84569  1.61995  1.46634  0.26236  3.55656  0.02895
    228   2.05353  0.44028  3.58015  1.60947    565 c - - -
          1.38629  1.38629  1.38629  1.38629
          0.07613  7.60565  2.61989  1.46634  0.26236  0.06197  2.81190
    229   1.90919  0.63511  3.27763  1.25806    566 c - - -
          1.33922  1.27246  2.13990  1.07840
          3.10235  0.37479  1.31817  2.00610  0.14446  0.34557  1.23039
    230   1.59813  0.55627  2.64672  1.87405    596 c - - -
          1.38629  1.38629  1.38629  1.38629
          0.32719  7.75664  1.27789  1.46634  0.26236  0.09276  2.42378
    231   0.25406  2.22005  3.01678  2.70620    597 a - - -
          1.38629  1.38629  1.38629  1.38629
          0.00775  7.80731  4.91750  1.46634  0.26236  1.70827  0.19989
    232   2.48371  0.58367  3.41726  1.12112    598 c - - -
          1.55576  1.00263  1.55576  1.55576
          0.03354  5.71861  3.51659  0.38242  1.14637  0.90280  0.51992
    233   0.91851  3.04318  0.70404  2.83674    600 g - - -
          1.38629  1.38629  1.38629  1.38629
          0.01417  7.90369  4.29038  1.46634  0.26236  0.57534  0.82671
    234   3.19203  2.65657  3.90277  0.14094    601 t - - -
          1.38629  1.38629  1.38629  1.38629
          0.00651  7.97376  5.09183  1.46634  0.26236  1.74863  0.19118
    235   3.10950  2.31334  3.13346  0.20717    602 t - - -
          1.38629  1.38629  1.38629  1.38629
          0.00323  7.97759  5.85091  1.46634  0.26236  1.77617  0.18547
    236   1.92916  2.72020  0.36307  2.37163    603 g - - -
          1.44021  1.44021  1.24006  1.44021
          0.00260  6.81787  6.49765  0.77519  0.61733  2.94833  0.05385
    237   2.88930  3.16762  3.15580  0.15120    605 t - - -
          1.38629  1.38629  1.38629  1.38629
          0.00682  7.98366  5.04240  1.46634  0.26236  2.36404  0.09876
    238   1.65332  2.92946  0.34578  3.04725    607 g - - -
          1.38629  1.38629  1.38629  1.38629
          0.00962  7.98124  4.68509  1.46634  0.26236  2.53780  0.08234
    239   1.75741  3.01688  0.30155  3.24709    608 g - - -
          1.38629  1.38629  1.38629  1.38629
          0.02638  7.96875  3.66180  1.46634  0.26236  2.41414  0.09370
    240   3.48608  2.45387  4.27553  0.13982    609 t - - -
          1.38629  1.38629  1.38629  1.38629
          0.00873  7.93965  4.78726  1.46634  0.26236  1.42668  0.27457
    241   2.68736  3.03121  4.06060  0.14336    610 t - - -
          1.26968  1.34658  3.19246  0.87256
          0.05377  3.09062  4.98022  1.73282  0.19454  3.32216  0.03674
    242   3.45732  2.57276  3.74606  0.14093    619 t - - -
          1.38629  1.38629  1.38629  1.38629
          0.01442  7.94076  4.27179  1.46634  0.26236  1.07095  0.41959
    243   2.98552  0.84036  3.45645  0.72074    620 t - - -
          1.38629  1.38629  1.38629  1.38629
          0.02435  7.95068  3.74202  1.46634  0.26236  1.80857  0.17899
    244   2.55003  0.41350  4.11517  1.40951    621 c - - -
          1.38629  1.38629  1.38629  1.38629
          0.00096  7.93015  7.41971  1.46634  0.26236  3.88803  0.02070
    245   0.13800  3.56152  3.92673  2.51577    622 a - - -
          1.38629  1.38629  1.38629  1.38629
          0.00324  7.91477  5.85307  1.46634  0.26236  3.52391  0.02993
    246   1.44971  3.27811  5.10535  0.32629    623 t - - -
          1.42629  1.04991  2.31197  1.16872
          0.01705  4.79365  4.75356  1.06359  0.42345  2.50992  0.08477
    247   3.58558  2.46555  4.58809  0.13108    628 t - - -
          1.38629  1.38629  1.38629  1.38629
          0.01604  7.89252  4.16423  1.46634  0.26236  3.10538  0.04584
    248   3.34178  0.27693  3.73448  1.70029    629 c - - -
          1.38629  1.38629  1.38629  1.38629
          0.00518  7.86714  5.34261  1.46634  0.26236  3.54081  0.02942
    249   3.33883  0.48826  3.79967  1.11337    630 c - - -
          1.38629  1.38629  1.38629  1.38629
          0.00265  7.85317  6.09136  1.46634  0.26236  2.95565  0.05345
    250   2.30752  0.67054  3.65676  1.01268    631 c - - -
          1.38629  1.38629  1.38629  1.38629
          0.00839  7.84489  4.83263  1.46634  0.26236  3.12376  0.04499
    251   0.28782  3.01154  1.78885  3.38917    632 a - - -
          1.38629  1.38629  1.38629  1.38629
          0.00434  7.80774  5.54112  1.46634  0.26236  2.95776  0.05333
    252   3.16134  0.46302  3.30098  1.23304    633 c - - -
          1.38629  1.38629  1.38629  1.38629
          0.01445  7.75559  4.27435  1.46634  0.26236  1.13295  0.38873
    253   2.72886  1.05847  3.25550  0.59937    634 t - - -
          1.38629  1.38629  1.38629  1.38629
          0.00955  7.75840  4.70150  1.46634  0.26236  1.00358  0.45660
    254   0.78932  2.39839  1.13677  2.00894    635 a - - -
          1.38629  1.38629  1.38629  1.38629
          0.02093  7.77774  3.89752  1.46634  0.26236  2.54019  0.08213
    255   0.69666  1.22370  3.43093  1.74150    636 a - - -
          1.38629  1.38629  1.38629  1.38629
          0.01408  7.75789  4.30120  1.46634  0.26236  2.00327  0.14490
    256   2.75817  0.88073  3.02589  0.74740    637 t - - -
          1.38629  1.38629  1.38629  1.38629
          0.00550  7.75035  5.28800  1.46634  0.26236  3.12290  0.04503
    257   0.25145  2.89067  2.66696  2.32966    638 a - - -
          1.38629  1.38629  1.38629  1.38629
          0.04918  7.74200  3.04591  1.46634  0.26236  2.93865  0.05439
    258   0.98976  0.75783  3.77790  1.98939    639 c - - -
          1.38629  1.38629  1.38629  1.38629
          0.04227  7.67793  3.19599  1.46634  0.26236  0.96252  0.48115
    259   1.65777  0.59891  3.70804  1.44604    640 c - - -
          1.38629  1.38629  1.38629  1.38629
          0.00234  7.68240  6.27846  1.46634  0.26236  1.11774  0.39604
    260   0.42061  1.79824  2.46647  2.37645    641 a - - -
          1.38629  1.38629  1.38629  1.38629
          0.20381  7.71780  1.69316  1.46634  0.26236  2.11348  0.12876
    261   1.89631  0.50150  3.95915  1.49086    652 c - - -
          1.38629  1.38629  1.38629  1.38629
          0.29814  7.51331  1.35769  1.46634  0.26236  3.18995  0.04205
    262   2.33048  0.37756  3.72066  1.64505    653 c - - -
          1.38629  1.38629  1.38629  1.38629
          0.06919  7.21752  2.71627  1.46634  0.26236  1.82451  0.17590
    263   0.94893  0.92697  3.30205  1.71322    654 c - - -
          1.38629  1.38629  1.38629  1.38629
          0.00402  7.25713  5.71095  1.46634  0.26236  0.43179  1.04796
    264   1.91487  0.49175  3.95618  1.50532    656 c - - -
          2.19116  0.30024  2.60656  2.60656
          0.05839  3.05232  4.65967  0.04052  3.22608  1.81372  0.17799
    265   1.27310  0.71841  3.35963  1.62069    660 c - - -
          2.60656  0.25654  2.54208  2.60656
          0.16867  3.05937  2.22287  0.04052  3.22608  1.12472  0.39266
    266   1.50919  0.65120  4.24994  1.41377    662 c - - -
          1.38629  1.38629  1.38629  1.38629
          0.10599  7.55150  2.30213  1.46634  0.26236  2.51664  0.08418
    267   0.94137  1.00133  3.35430  1.57222    663 a - - -
          1.38629  1.38629  1.38629  1.38629
          0.00115  7.45743  7.45743  1.46634  0.26236  0.43623  1.03979
    268   0.90879  1.40825  3.25428  1.15897    664 a - - -
          1.38629  1.38629  1.38629  1.38629
          0.10558  7.65079  2.30534  1.46634  0.26236  1.92490  0.15770
    269   1.43767  1.23256  3.27354  0.83678    665 t - - -
          2.11273  2.12032  2.97764  0.34505
          0.75792  0.81555  2.41951  0.13931  2.03991  0.82528  0.57646
    270   0.34349  2.84986  2.00294  2.32358    669 a - - -
          1.38629  1.38629  1.38629  1.38629
          0.00300  7.54885  6.00267  1.46634  0.26236  1.99280  0.14655
    271   0.39198  2.01611  2.79043  2.04244    670 a - - -
          1.38629  1.38629  1.38629  1.38629
          0.09246  7.55416  2.43285  1.46634  0.26236  0.72424  0.66299
    272   1.68555  0.75926  3.33924  1.16738    671 c - - -
          1.38629  1.38629  1.38629  1.38629
          0.06220  7.54858  2.81708  1.46634  0.26236  0.68873  0.69758
    273   0.41204  1.89795  3.14615  1.93236    672 a - - -
          1.38629  1.38629  1.38629  1.38629
          0.04796  7.57348  3.07234  1.46634  0.26236  0.96338  0.48062
    274   1.50116  0.58413  3.51954  1.66113    673 c - - -
          1.86884  0.87433  3.98794  0.89156
          0.73517  1.42857  1.26967  0.08359  2.52336  3.25306  0.03942
    275   2.26655  0.98712  4.28810  0.67344    676 t - - -
          1.38629  1.38629  1.38629  1.38629
          0.11316  7.23968  2.24172  1.46634  0.26236  0.43202  1.04754
    276   2.44190  1.37864  4.25910  0.43549    677 t - - -
          1.38629  1.38629  1.38629  1.38629
          0.08017  7.47065  2.57082  1.46634  0.26236  2.51443  0.08437
    277   2.07150  1.90123  3.78839  0.35384    678 t - - -
          1.38629  1.38629  1.38629  1.38629
          0.06557  7.39812  2.76691  1.46634  0.26236  2.19068  0.11860
    278   1.20886  1.51609  3.46002  0.79748    679 t - - -
          1.38629  1.38629  1.38629  1.38629
          0.00555  7.36706  5.31747  1.46634  0.26236  0.58330  0.81657
    279   0.60497  1.44131  3.00875  1.78414    680 a - - -
          1.38629  1.38629  1.38629  1.38629
          0.01698  7.53487  4.11624  1.46634  0.26236  3.08677  0.04672
    280   0.21365  2.60777  3.71616  2.36084    681 a - - -
          1.38629  1.38629  1.38629  1.38629
          0.00513  7.51243  5.38830  1.46634  0.26236  0.35939  1.19768
    281   0.22203  2.53589  4.04798  2.27830    682 a - - -
          0.59740  2.00924  2.63984  1.40937
          1.40421  0.36203  2.84425  1.50824  0.25013  2.32908  0.10246
    282   0.33109  2.07212  3.27179  2.13708    710 a - - -
          1.38629  1.38629  1.38629  1.38629
          0.56244  7.48011  0.84485  1.46634  0.26236  2.62554  0.07516
    283   0.23041  3.07079  2.53763  2.52127    711 a - - -
          1.38629  1.38629  1.38629  1.38629
          0.02325  6.91239  3.81737  1.46634  0.26236  1.54562  0.23976
    284   0.55764  1.23054  2.83619  2.56841    712 a - - -
          1.38629  1.38629  1.38629  1.38629
          0.03859  7.06734  3.29666  1.46634  0.26236  0.62336  0.76818
    285   0.48371  2.31928  3.35359  1.38548    713 a - - -
          1.38629  1.38629  1.38629  1.38629
          0.00357  7.32802  5.83969  1.46634  0.26236  1.91327  0.15970
    286   0.64063  1.42643  3.04743  1.68527    714 a - - -
          1.38629  1.38629  1.38629  1.38629
          0.01481  7.34474  4.26478  1.46634  0.26236  1.81241  0.17824
    287   1.13809  1.57350  1.48444  1.40396    715 a - - -
          1.38629  1.38629  1.38629  1.38629
          0.00605  7.34852  5.22440  1.46634  0.26236  0.49354  0.94280
    288   1.71886  0.56649  3.10992  1.56729    716 c - - -
          1.38629  1.38629  1.38629  1.38629
          0.10239  7.42818  2.33589  1.46634  0.26236  1.13306  0.38867
    289   1.56579  1.78620  3.45597  0.52438    717 t - - -
          1.38629  1.38629  1.38629  1.38629
          0.06701  7.34428  2.74632  1.46634  0.26236  3.24608  0.03970
    290   0.26307  2.70489  3.90183  1.93637    718 a - - -
          1.38629  1.38629  1.38629  1.38629
          0.05521  7.27866  2.93703  1.46634  0.26236  0.90601  0.51774
    291   0.32875  2.29098  3.32192  1.94543    720 a - - -
          1.38629  1.38629  1.38629  1.38629
          0.15823  7.31660  1.92632  1.46634  0.26236  2.23453  0.11322
    292   2.41246  0.54170  3.84817  1.17983    721 c - - -
          1.38629  1.38629  1.38629  1.38629
          0.07541  7.16852  2.63300  1.46634  0.26236  2.99756  0.05120
    293   2.88546  1.86406  3.74312  0.26729    722 t - - -
          1.38629  1.38629  1.38629  1.38629
          0.05438  7.10098  2.95456  1.46634  0.26236  1.61364  0.22210
    294   2.53805  0.44177  3.40408  1.40714    723 c - - -
          1.38629  1.38629  1.38629  1.38629
          0.00160  7.12981  7.12981  1.46634  0.26236  3.46299  0.03184
    295   2.71632  0.63222  2.84599  1.06597    724 c - - -
          1.38629  1.38629  1.38629  1.38629
          0.00455  7.13454  5.58837  1.46634  0.26236  3.17585  0.04266
    296   2.53574  1.84951  6.56782  0.27171    725 t - - -
          1.38629  1.38629  1.38629  1.38629
          0.00162  7.12195  7.12195  1.46634  0.26236  1.12858  0.39081
    297   0.20201  3.31112  3.82149  2.08312    729 a - - -
          1.38629  1.38629  1.38629  1.38629
          0.00397  7.22382  5.73550  1.46634  0.26236  2.45109  0.09014
    298   0.26795  3.19617  2.31213  2.35299    731 a - - -
          1.38629  1.38629  1.38629  1.38629
          0.00146  7.22632  7.22632  1.46634  0.26236  0.21088  1.66006
    299   1.03789  2.48485  3.81947  0.61522    732 t - - -
          1.38629  1.38629  1.38629  1.38629
          0.00846  7.36858  4.85444  1.46634  0.26236  1.54724  0.23932
    300   2.65016  0.44784  3.62461  1.33297    733 c - - -
          1.38629  1.38629  1.38629  1.38629
          0.01662  7.35213  4.14526  1.46634  0.26236  2.05036  0.13776
    301   2.94769  2.10113  3.09678  0.24843    734 t - - -
          1.38629  1.38629  1.38629  1.38629
          0.06783  7.32507  2.73453  1.46634  0.26236  0.88638  0.53128
    302   0.16466  3.16141  3.09965  2.74290    735 a - - -
          1.38629  1.38629  1.38629  1.38629
          0.00641  7.26385  5.16913  1.46634  0.26236  3.42766  0.03300
    303   2.23203  1.28591  3.45653  0.53657    736 t - - -
          1.38629  1.38629  1.38629  1.38629
          0.00725  7.25066  5.03422  1.46634  0.26236  3.47287  0.03152
    304   2.03410  2.60633  4.09338  0.25011    737 t - - -
          1.38629  1.38629  1.38629  1.38629
          0.00777  7.22074  4.96113  1.46634  0.26236  1.67693  0.20696
    305   2.20132  2.85238  2.07742  0.34760    738 t - - -
          1.38629  1.38629  1.38629  1.38629
          0.00147  7.21565  7.21565  1.46634  0.26236  1.98922  0.14711
    306   0.85903  3.30161  0.78000  2.51087    739 g - - -
          1.69505  1.69505  1.69505  0.80023
          0.01646  5.43716  4.42530  1.18346  0.36560  0.40347  1.10262
    307   0.24873  3.54952  2.70920  2.08042    743 a - - -
          1.38629  1.38629  1.38629  1.38629
          0.17783  7.21582  1.81905  1.46634  0.26236  1.56616  0.23426
    308   0.20289  2.98344  2.80139  2.62714    744 a - - -
          1.38629  1.38629  1.38629  1.38629
          0.00602  7.03522  5.27341  1.46634  0.26236  0.53512  0.88093
    309   0.08038  3.55820  3.21086  4.77719    745 A - - -
          1.38629  1.38629  1.38629  1.38629
          0.00720  7.11881  5.05711  1.46634  0.26236  3.21288  0.04107
    310   0.13710  3.25420  2.82614  3.49783    746 a - - -
          1.38629  1.38629  1.38629  1.38629
          0.01451  7.06120  4.30147  1.46634  0.26236  0.34393  1.23437
    311   0.16517  3.14252  2.68767  3.19327    747 a - - -
          1.38629  1.38629  1.38629  1.38629
          0.00175  7.03948  7.03948  1.46634  0.26236  1.18507  0.36489
    312   0.42172  2.36883  2.89588  1.63352    748 a - - -
          0.51447  3.52595  1.99633  1.44001
          0.13375  2.08610  6.88977  2.01064  0.14376  2.20242  0.11714
    313   0.97665  1.39566  2.66153  1.18444    775 a - - -
          1.38629  1.38629  1.38629  1.38629
          0.02262  6.81989  3.85004  1.46634  0.26236  2.20242  0.11714
    314   1.26462  2.23049  0.87755  1.63797    776 g - - -
          1.38629  1.38629  1.38629  1.38629
          0.00228  6.77795  6.77795  1.46634  0.26236  2.54512  0.08171
    315   2.19998  2.58124  0.39598  1.96257    777 g - - -
          1.38629  1.38629  1.38629  1.38629
          0.02945  6.75674  3.58050  1.46634  0.26236  1.83711  0.17349
    316   1.61184  3.48376  0.48036  1.88899    778 g - - -
          1.38629  1.38629  1.38629  1.38629
          0.00627  6.68990  5.29787  1.46634  0.26236  1.39914  0.28344
    317   1.62848  2.57303  1.23884  0.82611    779 t - - -
          1.38629  1.38629  1.38629  1.38629
          0.00758  6.62559  5.07941  1.46634  0.26236  1.68730  0.20459
    318   0.67860  2.71751  1.99099  1.23762    780 a - - -
          1.38629  1.38629  1.38629  1.38629
          0.03623  6.57573  3.37590  1.46634  0.26236  1.66202  0.21042
    319   1.24371  2.40859  0.71863  2.00749    781 g - - -
          1.38629  1.38629  1.38629  1.38629
          0.39508  6.46973  1.12447  1.46634  0.26236  2.26786  0.10929
    320   1.49574  2.84614  0.40088  3.03403    782 g - - -
          1.38629  1.38629  1.38629  1.38629
          0.00475  6.04416  6.04416  1.46634  0.26236  2.97393  0.05245
    321   1.89292  2.64006  0.53599  1.64547    783 g - - -
          1.38629  1.38629  1.38629  1.38629
          0.00498  5.99865  5.99865  1.46634  0.26236  4.01442  0.01822
    322   1.77662  1.68205  0.71136  1.87195    784 g - - -
          1.38629  1.38629  1.38629  1.38629
          0.11989  5.95378  2.20379  1.46634  0.26236  4.01442  0.01822
    323   2.45358  0.78002  1.47323  1.48530    785 c - - -
          1.38629  1.38629  1.38629  1.38629
          0.00605  5.80459  5.80459  1.46634  0.26236  4.15411  0.01582
    324   1.01244  1.52344  1.99883  1.26155    786 a - - -
          1.38629  1.38629  1.38629  1.38629
          0.00618  5.78289  5.78289  1.46634  0.26236  1.76460  0.18784
    325   1.63867  1.89128  2.35022  0.58065    787 t - - -
          1.38629  1.38629  1.38629  1.38629
          0.01920  5.88255  4.12074  1.46634  0.26236  2.86666  0.05857
    326   0.93243  1.80954  1.60958  1.41592    788 a - - -
          1.38629  1.38629  1.38629  1.38629
          0.00564  5.87387  5.87387  1.46634  0.26236  3.28918  0.03800
    327   2.16700  1.58521  2.24694  0.55364    789 t - - -
          1.38629  1.38629  1.38629  1.38629
          0.03022  5.86738  3.61435  1.46634  0.26236  2.44699  0.09053
    328   1.80039  0.72429  2.50685  1.31463    790 c - - -
          1.38629  1.38629  1.38629  1.38629
          0.00601  5.80973  5.80973  1.46634  0.26236  0.69603  0.69028
    329   1.42818  2.09857  1.58555  0.83750    791 t - - -
          1.38629  1.38629  1.38629  1.38629
          0.00451  6.09703  6.09703  1.46634  0.26236  0.16478  1.88441
    330   1.61736  2.06334  1.21560  0.97282    792 t - - -
          1.38629  1.38629  1.38629  1.38629
          0.09011  6.27173  2.47366  1.46634  0.26236  1.60085  0.22530
    331   1.96366  1.72720  1.46599  0.79623    793 t - - -
          1.38629  1.38629  1.38629  1.38629
          0.00457  6.08270  6.08270  1.46634  0.26236  0.15805  1.92281
    332   2.37526  1.37780  0.82302  1.53353    794 g - - -
          1.38629  1.38629  1.38629  1.38629
          0.00453  6.09167  6.09167  1.46634  0.26236  1.09861  0.40547
    333   0.98612  0.98346  2.35892  1.84237    795 c - - -
          1.38629  1.38629  1.38629  1.38629
          0.00478  6.03857  6.03857  1.46634  0.26236  1.09861  0.40547
    334   1.67210  0.55508  2.98255  1.67418    796 c - - -
          1.29748  1.71288  1.71288  1.00487
          0.01751  4.20411  6.02052  1.17926  0.36745  1.09861  0.40547
    335   0.75820  1.75988  2.43315  1.30318    800 a - - -
          1.38629  1.38629  1.38629  1.38629
          0.03095  5.94576  3.58058  1.46634  0.26236  1.09861  0.40547
    336   1.70040  0.99397  1.55404  1.44437    801 c - - -
          1.38629  1.38629  1.38629  1.38629
          0.00554  5.89179  5.89179  1.46634  0.26236  0.52045  0.90203
    337   1.94801  0.95309  3.90508  0.79462    802 t - - -
          0.45792  2.27045  2.70800  1.62218
          0.44031  1.04133  5.75079  0.03534  3.36031  1.09861  0.40547
    338   1.81196  0.71622  2.04877  1.51788    805 c - - -
          1.38629  1.38629  1.38629  1.38629
          0.02458  5.68516  3.86876  1.46634  0.26236  1.09861  0.40547
    339   1.04378  1.13062  3.51964  1.21930    806 a - - -
          1.38629  1.38629  1.38629  1.38629
          0.00694  5.66752  5.66752  1.46634  0.26236  0.68575  0.70060
    340   1.25737  1.05756  2.91897  1.15739    807 c - - -
          1.38629  1.38629  1.38629  1.38629
          0.00733  5.61279  5.61279  1.46634  0.26236  1.09861  0.40547
    341   0.81622  1.98062  2.62996  1.05603    808 a - - -
          1.38629  1.38629  1.38629  1.38629
          0.00733  5.61279  5.61279  1.46634  0.26236  1.09861  0.40547
    342   2.34063  0.53134  4.00560  1.21165    809 c - - -
          1.38629  1.38629  1.38629  1.38629
          0.00797  5.52950  5.52950  1.46634  0.26236  1.09861  0.40547
    343   1.24248  2.02429  2.46266  0.70515    810 t - - -
          1.38629  1.38629  1.38629  1.38629
          0.00893  5.41569  5.41569  1.46634  0.26236  1.09861  0.40547
    344   1.93155  1.60491  3.49132  0.47207    815 t - - -
          1.38629  1.38629  1.38629  1.38629
          0.00913  5.39402  5.39402  1.46634  0.26236  1.09861  0.40547
    345   1.95950  1.66945  2.17068  0.58587    816 t - - -
          1.38629  1.38629  1.38629  1.38629
          0.00975  5.32833  5.32833  1.46634  0.26236  1.09861  0.40547
    346   0.47082  1.37588  3.46195  2.39117    817 a - - -
          0.26738  2.18145  2.75037  2.85015
          0.52778  0.90519  5.18064  1.61792  0.22103  1.09861  0.40547
    347   1.01467  0.51515  4.23747  3.66425    831 c - - -
          1.38629  1.38629  1.38629  1.38629
          0.01209  5.11464  5.11464  1.46634  0.26236  1.09861  0.40547
    348   1.11053  0.60185  2.66990  2.92692    832 c - - -
          1.38629  1.38629  1.38629  1.38629
          0.01256  5.07704  5.07704  1.46634  0.26236  1.09861  0.40547
    349   1.37172  2.84484  2.43997  0.50912    833 t - - -
          1.38629  1.38629  1.38629  1.38629
          0.08203  5.00837  2.63009  1.46634  0.26236  1.09861  0.40547
    350   1.52979  2.76068  2.35520  0.46953    834 t - - -
          1.38629  1.38629  1.38629  1.38629
          0.01492  4.90565  4.90565  1.46634  0.26236  1.60085  0.22530
    351   1.57367  3.32264  3.58822  0.31607    835 t - - -
          1.38629  1.38629  1.38629  1.38629
          0.01492  4.90565  4.90565  1.46634  0.26236  1.60085  0.22530
    352   1.85677  0.23447  4.00266  3.36485    836 c - - -
          1.38629  1.38629  1.38629  1.38629
          0.01653  4.80408  4.80408  1.46634  0.26236  1.60085  0.22530
    353   0.09456  4.50312  2.71685  4.33719    837 A - - -
          1.38629  1.38629  1.38629  1.38629
          0.01726  4.76095  4.76095  1.46634  0.26236  0.51659  0.90770
    354   0.02570  4.97736  4.53437  4.86001    838 A - - -
          1.38629  1.38629  1.38629  1.38629
          0.01801  4.71880  4.71880  1.46634  0.26236  1.09861  0.40547
    355   0.10251  4.38242  2.65763  4.21162    839 A - - -
          1.38629  1.38629  1.38629  1.38629
          0.01801  4.71880  4.71880  1.46634  0.26236  1.09861  0.40547
    356   0.02801  4.88379  4.46196  4.76669    840 A - - -
          1.38629  1.38629  1.38629  1.38629
          0.01889  4.67175  4.67175  1.46634  0.26236  1.09861  0.40547
    357   0.02801  4.88379  4.46196  4.76669    841 A - - -
          1.38629  1.38629  1.38629  1.38629
          0.00949  4.66235        *  1.46634  0.26236  0.00000        *
//
